Energy	Plot 1
4000	1.311e+11
4000.5	1.319e+11
4001	1.328e+11
4001.5	1.337e+11
4002	1.345e+11
4002.5	1.354e+11
4003	1.363e+11
4003.5	1.373e+11
4004	1.382e+11
4004.5	1.391e+11
4005	1.4e+11
4005.5	1.409e+11
4006	1.418e+11
4006.5	1.427e+11
4007	1.436e+11
4007.5	1.445e+11
4008	1.453e+11
4008.5	1.461e+11
4009	1.469e+11
4009.5	1.476e+11
4010	1.483e+11
4010.5	1.49e+11
4011	1.496e+11
4011.5	1.502e+11
4012	1.507e+11
4012.5	1.512e+11
4013	1.516e+11
4013.5	1.52e+11
4014	1.524e+11
4014.5	1.527e+11
4015	1.529e+11
4015.5	1.531e+11
4016	1.533e+11
4016.5	1.534e+11
4017	1.535e+11
4017.5	1.535e+11
4018	1.535e+11
4018.5	1.535e+11
4019	1.534e+11
4019.5	1.534e+11
4020	1.532e+11
4020.5	1.531e+11
4021	1.53e+11
4021.5	1.528e+11
4022	1.526e+11
4022.5	1.525e+11
4023	1.523e+11
4023.5	1.521e+11
4024	1.52e+11
4024.5	1.519e+11
4025	1.517e+11
4025.5	1.516e+11
4026	1.516e+11
4026.5	1.515e+11
4027	1.515e+11
4027.5	1.515e+11
4028	1.516e+11
4028.5	1.516e+11
4029	1.518e+11
4029.5	1.519e+11
4030	1.521e+11
4030.5	1.524e+11
4031	1.527e+11
4031.5	1.53e+11
4032	1.534e+11
4032.5	1.538e+11
4033	1.543e+11
4033.5	1.548e+11
4034	1.554e+11
4034.5	1.56e+11
4035	1.566e+11
4035.5	1.573e+11
4036	1.58e+11
4036.5	1.587e+11
4037	1.595e+11
4037.5	1.603e+11
4038	1.611e+11
4038.5	1.62e+11
4039	1.628e+11
4039.5	1.637e+11
4040	1.646e+11
4040.5	1.655e+11
4041	1.664e+11
4041.5	1.673e+11
4042	1.682e+11
4042.5	1.691e+11
4043	1.7e+11
4043.5	1.708e+11
4044	1.717e+11
4044.5	1.725e+11
4045	1.733e+11
4045.5	1.741e+11
4046	1.749e+11
4046.5	1.757e+11
4047	1.764e+11
4047.5	1.77e+11
4048	1.777e+11
4048.5	1.783e+11
4049	1.789e+11
4049.5	1.794e+11
4050	1.799e+11
4050.5	1.804e+11
4051	1.809e+11
4051.5	1.813e+11
4052	1.817e+11
4052.5	1.82e+11
4053	1.824e+11
4053.5	1.827e+11
4054	1.83e+11
4054.5	1.832e+11
4055	1.835e+11
4055.5	1.837e+11
4056	1.84e+11
4056.5	1.842e+11
4057	1.844e+11
4057.5	1.847e+11
4058	1.85e+11
4058.5	1.853e+11
4059	1.856e+11
4059.5	1.859e+11
4060	1.863e+11
4060.5	1.867e+11
4061	1.871e+11
4061.5	1.876e+11
4062	1.881e+11
4062.5	1.887e+11
4063	1.894e+11
4063.5	1.901e+11
4064	1.909e+11
4064.5	1.918e+11
4065	1.927e+11
4065.5	1.937e+11
4066	1.948e+11
4066.5	1.959e+11
4067	1.971e+11
4067.5	1.984e+11
4068	1.998e+11
4068.5	2.013e+11
4069	2.028e+11
4069.5	2.044e+11
4070	2.061e+11
4070.5	2.078e+11
4071	2.096e+11
4071.5	2.114e+11
4072	2.133e+11
4072.5	2.153e+11
4073	2.173e+11
4073.5	2.193e+11
4074	2.213e+11
4074.5	2.233e+11
4075	2.254e+11
4075.5	2.275e+11
4076	2.296e+11
4076.5	2.316e+11
4077	2.337e+11
4077.5	2.357e+11
4078	2.376e+11
4078.5	2.396e+11
4079	2.414e+11
4079.5	2.432e+11
4080	2.45e+11
4080.5	2.466e+11
4081	2.482e+11
4081.5	2.497e+11
4082	2.511e+11
4082.5	2.524e+11
4083	2.536e+11
4083.5	2.547e+11
4084	2.557e+11
4084.5	2.566e+11
4085	2.574e+11
4085.5	2.58e+11
4086	2.586e+11
4086.5	2.59e+11
4087	2.594e+11
4087.5	2.596e+11
4088	2.598e+11
4088.5	2.598e+11
4089	2.598e+11
4089.5	2.597e+11
4090	2.596e+11
4090.5	2.593e+11
4091	2.59e+11
4091.5	2.587e+11
4092	2.583e+11
4092.5	2.579e+11
4093	2.574e+11
4093.5	2.57e+11
4094	2.565e+11
4094.5	2.561e+11
4095	2.556e+11
4095.5	2.552e+11
4096	2.548e+11
4096.5	2.544e+11
4097	2.541e+11
4097.5	2.538e+11
4098	2.535e+11
4098.5	2.533e+11
4099	2.533e+11
4099.5	2.532e+11
4100	2.533e+11
4100.5	2.534e+11
4101	2.535e+11
4101.5	2.538e+11
4102	2.542e+11
4102.5	2.546e+11
4103	2.552e+11
4103.5	2.558e+11
4104	2.565e+11
4104.5	2.573e+11
4105	2.582e+11
4105.5	2.591e+11
4106	2.601e+11
4106.5	2.612e+11
4107	2.624e+11
4107.5	2.636e+11
4108	2.649e+11
4108.5	2.662e+11
4109	2.676e+11
4109.5	2.691e+11
4110	2.705e+11
4110.5	2.721e+11
4111	2.736e+11
4111.5	2.751e+11
4112	2.767e+11
4112.5	2.783e+11
4113	2.799e+11
4113.5	2.815e+11
4114	2.83e+11
4114.5	2.846e+11
4115	2.862e+11
4115.5	2.877e+11
4116	2.891e+11
4116.5	2.906e+11
4117	2.921e+11
4117.5	2.935e+11
4118	2.948e+11
4118.5	2.961e+11
4119	2.974e+11
4119.5	2.986e+11
4120	2.998e+11
4120.5	3.01e+11
4121	3.021e+11
4121.5	3.031e+11
4122	3.041e+11
4122.5	3.051e+11
4123	3.06e+11
4123.5	3.069e+11
4124	3.078e+11
4124.5	3.087e+11
4125	3.095e+11
4125.5	3.104e+11
4126	3.112e+11
4126.5	3.12e+11
4127	3.128e+11
4127.5	3.137e+11
4128	3.145e+11
4128.5	3.154e+11
4129	3.164e+11
4129.5	3.173e+11
4130	3.184e+11
4130.5	3.194e+11
4131	3.205e+11
4131.5	3.218e+11
4132	3.231e+11
4132.5	3.244e+11
4133	3.259e+11
4133.5	3.274e+11
4134	3.291e+11
4134.5	3.309e+11
4135	3.327e+11
4135.5	3.347e+11
4136	3.368e+11
4136.5	3.39e+11
4137	3.413e+11
4137.5	3.438e+11
4138	3.463e+11
4138.5	3.49e+11
4139	3.517e+11
4139.5	3.546e+11
4140	3.576e+11
4140.5	3.607e+11
4141	3.638e+11
4141.5	3.67e+11
4142	3.703e+11
4142.5	3.737e+11
4143	3.771e+11
4143.5	3.805e+11
4144	3.84e+11
4144.5	3.875e+11
4145	3.91e+11
4145.5	3.944e+11
4146	3.979e+11
4146.5	4.013e+11
4147	4.047e+11
4147.5	4.08e+11
4148	4.112e+11
4148.5	4.143e+11
4149	4.174e+11
4149.5	4.203e+11
4150	4.231e+11
4150.5	4.258e+11
4151	4.283e+11
4151.5	4.307e+11
4152	4.329e+11
4152.5	4.35e+11
4153	4.369e+11
4153.5	4.386e+11
4154	4.402e+11
4154.5	4.415e+11
4155	4.428e+11
4155.5	4.439e+11
4156	4.448e+11
4156.5	4.455e+11
4157	4.461e+11
4157.5	4.465e+11
4158	4.468e+11
4158.5	4.47e+11
4159	4.47e+11
4159.5	4.47e+11
4160	4.468e+11
4160.5	4.466e+11
4161	4.463e+11
4161.5	4.459e+11
4162	4.454e+11
4162.5	4.45e+11
4163	4.445e+11
4163.5	4.44e+11
4164	4.435e+11
4164.5	4.43e+11
4165	4.425e+11
4165.5	4.421e+11
4166	4.417e+11
4166.5	4.414e+11
4167	4.412e+11
4167.5	4.41e+11
4168	4.409e+11
4168.5	4.409e+11
4169	4.41e+11
4169.5	4.413e+11
4170	4.416e+11
4170.5	4.42e+11
4171	4.426e+11
4171.5	4.433e+11
4172	4.441e+11
4172.5	4.45e+11
4173	4.461e+11
4173.5	4.473e+11
4174	4.485e+11
4174.5	4.499e+11
4175	4.514e+11
4175.5	4.531e+11
4176	4.548e+11
4176.5	4.566e+11
4177	4.585e+11
4177.5	4.604e+11
4178	4.625e+11
4178.5	4.646e+11
4179	4.667e+11
4179.5	4.689e+11
4180	4.712e+11
4180.5	4.735e+11
4181	4.758e+11
4181.5	4.781e+11
4182	4.804e+11
4182.5	4.827e+11
4183	4.851e+11
4183.5	4.874e+11
4184	4.897e+11
4184.5	4.92e+11
4185	4.942e+11
4185.5	4.964e+11
4186	4.986e+11
4186.5	5.008e+11
4187	5.029e+11
4187.5	5.05e+11
4188	5.07e+11
4188.5	5.09e+11
4189	5.11e+11
4189.5	5.129e+11
4190	5.148e+11
4190.5	5.166e+11
4191	5.185e+11
4191.5	5.203e+11
4192	5.22e+11
4192.5	5.238e+11
4193	5.256e+11
4193.5	5.273e+11
4194	5.291e+11
4194.5	5.308e+11
4195	5.326e+11
4195.5	5.344e+11
4196	5.363e+11
4196.5	5.381e+11
4197	5.401e+11
4197.5	5.42e+11
4198	5.44e+11
4198.5	5.461e+11
4199	5.483e+11
4199.5	5.506e+11
4200	5.529e+11
4200.5	5.553e+11
4201	5.578e+11
4201.5	5.604e+11
4202	5.631e+11
4202.5	5.659e+11
4203	5.688e+11
4203.5	5.718e+11
4204	5.749e+11
4204.5	5.782e+11
4205	5.815e+11
4205.5	5.848e+11
4206	5.883e+11
4206.5	5.919e+11
4207	5.956e+11
4207.5	5.994e+11
4208	6.032e+11
4208.5	6.07e+11
4209	6.109e+11
4209.5	6.149e+11
4210	6.188e+11
4210.5	6.229e+11
4211	6.269e+11
4211.5	6.308e+11
4212	6.348e+11
4212.5	6.387e+11
4213	6.426e+11
4213.5	6.464e+11
4214	6.502e+11
4214.5	6.538e+11
4215	6.573e+11
4215.5	6.608e+11
4216	6.641e+11
4216.5	6.673e+11
4217	6.704e+11
4217.5	6.732e+11
4218	6.76e+11
4218.5	6.785e+11
4219	6.809e+11
4219.5	6.832e+11
4220	6.852e+11
4220.5	6.87e+11
4221	6.887e+11
4221.5	6.902e+11
4222	6.915e+11
4222.5	6.927e+11
4223	6.937e+11
4223.5	6.944e+11
4224	6.95e+11
4224.5	6.955e+11
4225	6.958e+11
4225.5	6.96e+11
4226	6.961e+11
4226.5	6.959e+11
4227	6.957e+11
4227.5	6.954e+11
4228	6.95e+11
4228.5	6.946e+11
4229	6.941e+11
4229.5	6.934e+11
4230	6.928e+11
4230.5	6.921e+11
4231	6.915e+11
4231.5	6.908e+11
4232	6.901e+11
4232.5	6.894e+11
4233	6.888e+11
4233.5	6.882e+11
4234	6.876e+11
4234.5	6.872e+11
4235	6.867e+11
4235.5	6.863e+11
4236	6.86e+11
4236.5	6.858e+11
4237	6.858e+11
4237.5	6.858e+11
4238	6.858e+11
4238.5	6.86e+11
4239	6.863e+11
4239.5	6.867e+11
4240	6.873e+11
4240.5	6.879e+11
4241	6.886e+11
4241.5	6.894e+11
4242	6.903e+11
4242.5	6.913e+11
4243	6.925e+11
4243.5	6.937e+11
4244	6.95e+11
4244.5	6.964e+11
4245	6.979e+11
4245.5	6.994e+11
4246	7.011e+11
4246.5	7.028e+11
4247	7.046e+11
4247.5	7.064e+11
4248	7.083e+11
4248.5	7.102e+11
4249	7.123e+11
4249.5	7.143e+11
4250	7.163e+11
4250.5	7.184e+11
4251	7.205e+11
4251.5	7.227e+11
4252	7.249e+11
4252.5	7.271e+11
4253	7.293e+11
4253.5	7.315e+11
4254	7.337e+11
4254.5	7.36e+11
4255	7.383e+11
4255.5	7.405e+11
4256	7.427e+11
4256.5	7.449e+11
4257	7.472e+11
4257.5	7.495e+11
4258	7.518e+11
4258.5	7.54e+11
4259	7.562e+11
4259.5	7.585e+11
4260	7.608e+11
4260.5	7.631e+11
4261	7.654e+11
4261.5	7.677e+11
4262	7.7e+11
4262.5	7.723e+11
4263	7.747e+11
4263.5	7.771e+11
4264	7.795e+11
4264.5	7.819e+11
4265	7.843e+11
4265.5	7.867e+11
4266	7.892e+11
4266.5	7.918e+11
4267	7.944e+11
4267.5	7.97e+11
4268	7.995e+11
4268.5	8.022e+11
4269	8.049e+11
4269.5	8.076e+11
4270	8.104e+11
4270.5	8.132e+11
4271	8.159e+11
4271.5	8.187e+11
4272	8.215e+11
4272.5	8.244e+11
4273	8.273e+11
4273.5	8.302e+11
4274	8.33e+11
4274.5	8.358e+11
4275	8.387e+11
4275.5	8.416e+11
4276	8.444e+11
4276.5	8.472e+11
4277	8.498e+11
4277.5	8.525e+11
4278	8.553e+11
4278.5	8.579e+11
4279	8.604e+11
4279.5	8.629e+11
4280	8.652e+11
4280.5	8.675e+11
4281	8.698e+11
4281.5	8.719e+11
4282	8.739e+11
4282.5	8.758e+11
4283	8.775e+11
4283.5	8.792e+11
4284	8.808e+11
4284.5	8.822e+11
4285	8.835e+11
4285.5	8.847e+11
4286	8.857e+11
4286.5	8.866e+11
4287	8.874e+11
4287.5	8.88e+11
4288	8.885e+11
4288.5	8.889e+11
4289	8.891e+11
4289.5	8.891e+11
4290	8.892e+11
4290.5	8.89e+11
4291	8.888e+11
4291.5	8.884e+11
4292	8.878e+11
4292.5	8.872e+11
4293	8.866e+11
4293.5	8.858e+11
4294	8.85e+11
4294.5	8.84e+11
4295	8.83e+11
4295.5	8.819e+11
4296	8.809e+11
4296.5	8.797e+11
4297	8.786e+11
4297.5	8.774e+11
4298	8.761e+11
4298.5	8.748e+11
4299	8.737e+11
4299.5	8.725e+11
4300	8.713e+11
4300.5	8.701e+11
4301	8.689e+11
4301.5	8.678e+11
4302	8.667e+11
4302.5	8.657e+11
4303	8.648e+11
4303.5	8.638e+11
4304	8.629e+11
4304.5	8.622e+11
4305	8.615e+11
4305.5	8.609e+11
4306	8.604e+11
4306.5	8.599e+11
4307	8.595e+11
4307.5	8.592e+11
4308	8.59e+11
4308.5	8.589e+11
4309	8.588e+11
4309.5	8.588e+11
4310	8.589e+11
4310.5	8.591e+11
4311	8.593e+11
4311.5	8.596e+11
4312	8.6e+11
4312.5	8.604e+11
4313	8.608e+11
4313.5	8.614e+11
4314	8.619e+11
4314.5	8.625e+11
4315	8.631e+11
4315.5	8.637e+11
4316	8.643e+11
4316.5	8.65e+11
4317	8.656e+11
4317.5	8.662e+11
4318	8.669e+11
4318.5	8.675e+11
4319	8.68e+11
4319.5	8.687e+11
4320	8.692e+11
4320.5	8.697e+11
4321	8.702e+11
4321.5	8.706e+11
4322	8.71e+11
4322.5	8.714e+11
4323	8.717e+11
4323.5	8.72e+11
4324	8.722e+11
4324.5	8.724e+11
4325	8.725e+11
4325.5	8.727e+11
4326	8.727e+11
4326.5	8.728e+11
4327	8.728e+11
4327.5	8.728e+11
4328	8.727e+11
4328.5	8.727e+11
4329	8.726e+11
4329.5	8.725e+11
4330	8.724e+11
4330.5	8.723e+11
4331	8.722e+11
4331.5	8.721e+11
4332	8.72e+11
4332.5	8.719e+11
4333	8.719e+11
4333.5	8.718e+11
4334	8.718e+11
4334.5	8.719e+11
4335	8.719e+11
4335.5	8.72e+11
4336	8.721e+11
4336.5	8.722e+11
4337	8.723e+11
4337.5	8.725e+11
4338	8.727e+11
4338.5	8.729e+11
4339	8.732e+11
4339.5	8.734e+11
4340	8.737e+11
4340.5	8.74e+11
4341	8.743e+11
4341.5	8.745e+11
4342	8.748e+11
4342.5	8.75e+11
4343	8.752e+11
4343.5	8.754e+11
4344	8.756e+11
4344.5	8.757e+11
4345	8.757e+11
4345.5	8.757e+11
4346	8.756e+11
4346.5	8.755e+11
4347	8.753e+11
4347.5	8.75e+11
4348	8.746e+11
4348.5	8.741e+11
4349	8.736e+11
4349.5	8.73e+11
4350	8.722e+11
4350.5	8.714e+11
4351	8.705e+11
4351.5	8.694e+11
4352	8.683e+11
4352.5	8.671e+11
4353	8.658e+11
4353.5	8.645e+11
4354	8.63e+11
4354.5	8.614e+11
4355	8.598e+11
4355.5	8.582e+11
4356	8.564e+11
4356.5	8.546e+11
4357	8.528e+11
4357.5	8.509e+11
4358	8.49e+11
4358.5	8.471e+11
4359	8.452e+11
4359.5	8.432e+11
4360	8.413e+11
4360.5	8.393e+11
4361	8.374e+11
4361.5	8.355e+11
4362	8.337e+11
4362.5	8.319e+11
4363	8.301e+11
4363.5	8.284e+11
4364	8.267e+11
4364.5	8.251e+11
4365	8.236e+11
4365.5	8.222e+11
4366	8.208e+11
4366.5	8.195e+11
4367	8.182e+11
4367.5	8.171e+11
4368	8.16e+11
4368.5	8.151e+11
4369	8.141e+11
4369.5	8.133e+11
4370	8.126e+11
4370.5	8.12e+11
4371	8.114e+11
4371.5	8.109e+11
4372	8.105e+11
4372.5	8.101e+11
4373	8.098e+11
4373.5	8.096e+11
4374	8.094e+11
4374.5	8.093e+11
4375	8.094e+11
4375.5	8.093e+11
4376	8.094e+11
4376.5	8.096e+11
4377	8.097e+11
4377.5	8.1e+11
4378	8.103e+11
4378.5	8.106e+11
4379	8.11e+11
4379.5	8.114e+11
4380	8.119e+11
4380.5	8.124e+11
4381	8.13e+11
4381.5	8.136e+11
4382	8.143e+11
4382.5	8.151e+11
4383	8.159e+11
4383.5	8.167e+11
4384	8.177e+11
4384.5	8.187e+11
4385	8.198e+11
4385.5	8.21e+11
4386	8.222e+11
4386.5	8.235e+11
4387	8.25e+11
4387.5	8.265e+11
4388	8.281e+11
4388.5	8.299e+11
4389	8.317e+11
4389.5	8.336e+11
4390	8.357e+11
4390.5	8.378e+11
4391	8.401e+11
4391.5	8.425e+11
4392	8.45e+11
4392.5	8.476e+11
4393	8.505e+11
4393.5	8.533e+11
4394	8.562e+11
4394.5	8.593e+11
4395	8.626e+11
4395.5	8.66e+11
4396	8.694e+11
4396.5	8.729e+11
4397	8.766e+11
4397.5	8.804e+11
4398	8.843e+11
4398.5	8.884e+11
4399	8.925e+11
4399.5	8.966e+11
4400	9.009e+11
4400.5	9.053e+11
4401	9.098e+11
4401.5	9.145e+11
4402	9.192e+11
4402.5	9.239e+11
4403	9.288e+11
4403.5	9.337e+11
4404	9.387e+11
4404.5	9.44e+11
4405	9.492e+11
4405.5	9.544e+11
4406	9.598e+11
4406.5	9.653e+11
4407	9.709e+11
4407.5	9.767e+11
4408	9.825e+11
4408.5	9.883e+11
4409	9.943e+11
4409.5	1e+12
4410	1.007e+12
4410.5	1.013e+12
4411	1.02e+12
4411.5	1.026e+12
4412	1.033e+12
4412.5	1.04e+12
4413	1.047e+12
4413.5	1.054e+12
4414	1.061e+12
4414.5	1.069e+12
4415	1.076e+12
4415.5	1.084e+12
4416	1.092e+12
4416.5	1.1e+12
4417	1.109e+12
4417.5	1.117e+12
4418	1.126e+12
4418.5	1.135e+12
4419	1.144e+12
4419.5	1.154e+12
4420	1.163e+12
4420.5	1.173e+12
4421	1.183e+12
4421.5	1.193e+12
4422	1.204e+12
4422.5	1.215e+12
4423	1.226e+12
4423.5	1.237e+12
4424	1.248e+12
4424.5	1.26e+12
4425	1.272e+12
4425.5	1.284e+12
4426	1.297e+12
4426.5	1.31e+12
4427	1.323e+12
4427.5	1.336e+12
4428	1.35e+12
4428.5	1.364e+12
4429	1.378e+12
4429.5	1.393e+12
4430	1.407e+12
4430.5	1.423e+12
4431	1.438e+12
4431.5	1.454e+12
4432	1.47e+12
4432.5	1.487e+12
4433	1.504e+12
4433.5	1.521e+12
4434	1.539e+12
4434.5	1.557e+12
4435	1.575e+12
4435.5	1.594e+12
4436	1.613e+12
4436.5	1.632e+12
4437	1.652e+12
4437.5	1.672e+12
4438	1.693e+12
4438.5	1.714e+12
4439	1.736e+12
4439.5	1.758e+12
4440	1.78e+12
4440.5	1.803e+12
4441	1.826e+12
4441.5	1.85e+12
4442	1.874e+12
4442.5	1.899e+12
4443	1.924e+12
4443.5	1.95e+12
4444	1.976e+12
4444.5	2.002e+12
4445	2.029e+12
4445.5	2.057e+12
4446	2.085e+12
4446.5	2.113e+12
4447	2.142e+12
4447.5	2.172e+12
4448	2.202e+12
4448.5	2.233e+12
4449	2.264e+12
4449.5	2.296e+12
4450	2.328e+12
4450.5	2.36e+12
4451	2.393e+12
4451.5	2.428e+12
4452	2.462e+12
4452.5	2.497e+12
4453	2.532e+12
4453.5	2.568e+12
4454	2.604e+12
4454.5	2.642e+12
4455	2.68e+12
4455.5	2.718e+12
4456	2.757e+12
4456.5	2.796e+12
4457	2.836e+12
4457.5	2.877e+12
4458	2.919e+12
4458.5	2.96e+12
4459	3.003e+12
4459.5	3.046e+12
4460	3.089e+12
4460.5	3.134e+12
4461	3.179e+12
4461.5	3.225e+12
4462	3.271e+12
4462.5	3.318e+12
4463	3.365e+12
4463.5	3.414e+12
4464	3.463e+12
4464.5	3.512e+12
4465	3.562e+12
4465.5	3.613e+12
4466	3.665e+12
4466.5	3.717e+12
4467	3.77e+12
4467.5	3.824e+12
4468	3.878e+12
4468.5	3.933e+12
4469	3.99e+12
4469.5	4.046e+12
4470	4.103e+12
4470.5	4.161e+12
4471	4.22e+12
4471.5	4.28e+12
4472	4.341e+12
4472.5	4.402e+12
4473	4.465e+12
4473.5	4.528e+12
4474	4.591e+12
4474.5	4.656e+12
4475	4.723e+12
4475.5	4.789e+12
4476	4.857e+12
4476.5	4.925e+12
4477	4.995e+12
4477.5	5.065e+12
4478	5.138e+12
4478.5	5.21e+12
4479	5.284e+12
4479.5	5.359e+12
4480	5.434e+12
4480.5	5.511e+12
4481	5.59e+12
4481.5	5.669e+12
4482	5.75e+12
4482.5	5.831e+12
4483	5.914e+12
4483.5	5.998e+12
4484	6.084e+12
4484.5	6.171e+12
4485	6.258e+12
4485.5	6.347e+12
4486	6.437e+12
4486.5	6.529e+12
4487	6.623e+12
4487.5	6.717e+12
4488	6.812e+12
4488.5	6.909e+12
4489	7.007e+12
4489.5	7.107e+12
4490	7.208e+12
4490.5	7.31e+12
4491	7.414e+12
4491.5	7.519e+12
4492	7.624e+12
4492.5	7.733e+12
4493	7.842e+12
4493.5	7.952e+12
4494	8.064e+12
4494.5	8.177e+12
4495	8.291e+12
4495.5	8.408e+12
4496	8.525e+12
4496.5	8.644e+12
4497	8.764e+12
4497.5	8.885e+12
4498	9.007e+12
4498.5	9.133e+12
4499	9.259e+12
4499.5	9.386e+12
4500	9.514e+12
4500.5	9.644e+12
4501	9.775e+12
4501.5	9.91e+12
4502	1.004e+13
4502.5	1.018e+13
4503	1.032e+13
4503.5	1.046e+13
4504	1.06e+13
4504.5	1.074e+13
4505	1.089e+13
4505.5	1.103e+13
4506	1.118e+13
4506.5	1.133e+13
4507	1.148e+13
4507.5	1.163e+13
4508	1.179e+13
4508.5	1.194e+13
4509	1.21e+13
4509.5	1.226e+13
4510	1.242e+13
4510.5	1.259e+13
4511	1.275e+13
4511.5	1.292e+13
4512	1.309e+13
4512.5	1.326e+13
4513	1.344e+13
4513.5	1.361e+13
4514	1.379e+13
4514.5	1.397e+13
4515	1.415e+13
4515.5	1.434e+13
4516	1.453e+13
4516.5	1.471e+13
4517	1.49e+13
4517.5	1.51e+13
4518	1.529e+13
4518.5	1.549e+13
4519	1.569e+13
4519.5	1.59e+13
4520	1.61e+13
4520.5	1.631e+13
4521	1.652e+13
4521.5	1.673e+13
4522	1.695e+13
4522.5	1.716e+13
4523	1.738e+13
4523.5	1.76e+13
4524	1.783e+13
4524.5	1.806e+13
4525	1.829e+13
4525.5	1.852e+13
4526	1.875e+13
4526.5	1.899e+13
4527	1.923e+13
4527.5	1.947e+13
4528	1.972e+13
4528.5	1.996e+13
4529	2.021e+13
4529.5	2.046e+13
4530	2.071e+13
4530.5	2.097e+13
4531	2.123e+13
4531.5	2.149e+13
4532	2.175e+13
4532.5	2.201e+13
4533	2.228e+13
4533.5	2.255e+13
4534	2.282e+13
4534.5	2.309e+13
4535	2.336e+13
4535.5	2.364e+13
4536	2.392e+13
4536.5	2.419e+13
4537	2.448e+13
4537.5	2.476e+13
4538	2.504e+13
4538.5	2.533e+13
4539	2.562e+13
4539.5	2.591e+13
4540	2.62e+13
4540.5	2.649e+13
4541	2.678e+13
4541.5	2.707e+13
4542	2.737e+13
4542.5	2.766e+13
4543	2.796e+13
4543.5	2.826e+13
4544	2.855e+13
4544.5	2.885e+13
4545	2.915e+13
4545.5	2.945e+13
4546	2.975e+13
4546.5	3.005e+13
4547	3.035e+13
4547.5	3.065e+13
4548	3.095e+13
4548.5	3.125e+13
4549	3.155e+13
4549.5	3.185e+13
4550	3.215e+13
4550.5	3.245e+13
4551	3.275e+13
4551.5	3.305e+13
4552	3.334e+13
4552.5	3.364e+13
4553	3.393e+13
4553.5	3.422e+13
4554	3.451e+13
4554.5	3.48e+13
4555	3.509e+13
4555.5	3.537e+13
4556	3.566e+13
4556.5	3.594e+13
4557	3.622e+13
4557.5	3.65e+13
4558	3.677e+13
4558.5	3.704e+13
4559	3.731e+13
4559.5	3.757e+13
4560	3.784e+13
4560.5	3.81e+13
4561	3.835e+13
4561.5	3.861e+13
4562	3.885e+13
4562.5	3.91e+13
4563	3.934e+13
4563.5	3.958e+13
4564	3.981e+13
4564.5	4.004e+13
4565	4.027e+13
4565.5	4.049e+13
4566	4.07e+13
4566.5	4.091e+13
4567	4.112e+13
4567.5	4.132e+13
4568	4.152e+13
4568.5	4.171e+13
4569	4.19e+13
4569.5	4.208e+13
4570	4.225e+13
4570.5	4.242e+13
4571	4.258e+13
4571.5	4.274e+13
4572	4.29e+13
4572.5	4.304e+13
4573	4.319e+13
4573.5	4.332e+13
4574	4.345e+13
4574.5	4.357e+13
4575	4.369e+13
4575.5	4.38e+13
4576	4.391e+13
4576.5	4.401e+13
4577	4.41e+13
4577.5	4.419e+13
4578	4.427e+13
4578.5	4.435e+13
4579	4.442e+13
4579.5	4.448e+13
4580	4.454e+13
4580.5	4.459e+13
4581	4.464e+13
4581.5	4.468e+13
4582	4.471e+13
4582.5	4.474e+13
4583	4.477e+13
4583.5	4.479e+13
4584	4.48e+13
4584.5	4.481e+13
4585	4.481e+13
4585.5	4.481e+13
4586	4.48e+13
4586.5	4.479e+13
4587	4.477e+13
4587.5	4.475e+13
4588	4.472e+13
4588.5	4.469e+13
4589	4.466e+13
4589.5	4.462e+13
4590	4.458e+13
4590.5	4.453e+13
4591	4.448e+13
4591.5	4.443e+13
4592	4.437e+13
4592.5	4.431e+13
4593	4.424e+13
4593.5	4.417e+13
4594	4.41e+13
4594.5	4.403e+13
4595	4.395e+13
4595.5	4.387e+13
4596	4.379e+13
4596.5	4.37e+13
4597	4.361e+13
4597.5	4.352e+13
4598	4.342e+13
4598.5	4.333e+13
4599	4.323e+13
4599.5	4.313e+13
4600	4.302e+13
4600.5	4.292e+13
4601	4.281e+13
4601.5	4.271e+13
4602	4.26e+13
4602.5	4.248e+13
4603	4.237e+13
4603.5	4.225e+13
4604	4.213e+13
4604.5	4.202e+13
4605	4.19e+13
4605.5	4.177e+13
4606	4.165e+13
4606.5	4.152e+13
4607	4.14e+13
4607.5	4.127e+13
4608	4.114e+13
4608.5	4.101e+13
4609	4.087e+13
4609.5	4.074e+13
4610	4.061e+13
4610.5	4.047e+13
4611	4.033e+13
4611.5	4.019e+13
4612	4.005e+13
4612.5	3.99e+13
4613	3.976e+13
4613.5	3.961e+13
4614	3.946e+13
4614.5	3.931e+13
4615	3.916e+13
4615.5	3.9e+13
4616	3.885e+13
4616.5	3.869e+13
4617	3.853e+13
4617.5	3.837e+13
4618	3.82e+13
4618.5	3.804e+13
4619	3.787e+13
4619.5	3.77e+13
4620	3.753e+13
4620.5	3.735e+13
4621	3.717e+13
4621.5	3.699e+13
4622	3.681e+13
4622.5	3.663e+13
4623	3.644e+13
4623.5	3.624e+13
4624	3.605e+13
4624.5	3.585e+13
4625	3.566e+13
4625.5	3.545e+13
4626	3.525e+13
4626.5	3.504e+13
4627	3.483e+13
4627.5	3.461e+13
4628	3.44e+13
4628.5	3.418e+13
